# fichier halley.txt
############################################################################################
# Positions prévues de la comète Halley par rapport au Soleil.
# Les données sont prises tous les jours.
# La première ligne correspond au 18/ 3/2021, la deuxième au 19/ 3/2021, etc.
# Les distances sont exprimées en unité astronomique (au) : 1 au = 1.496e+11 m
############################################################################################
X (au)              Y (au)              
-20.1565            26.7923             
-20.1562            26.7928             
-20.1559            26.7933             
-20.1557            26.7938             
-20.1554            26.7943             
-20.1551            26.7948             
-20.1548            26.7953             
-20.1545            26.7958             
-20.1542            26.7963             
-20.1539            26.7968             
-20.1537            26.7973             
-20.1534            26.7978             
-20.1531            26.7983             
-20.1528            26.7988             
-20.1525            26.7993             
-20.1522            26.7997             
-20.1519            26.8002             
-20.1517            26.8007             
-20.1514            26.8012             
-20.1511            26.8017             
-20.1508            26.8022             
-20.1505            26.8027             
-20.1502            26.8032             
-20.1499            26.8037             
-20.1496            26.8042             
-20.1494            26.8047             
-20.1491            26.8051             
-20.1488            26.8056             
-20.1485            26.8061             
-20.1482            26.8066             
-20.1479            26.8071             
-20.1476            26.8076             
-20.1473            26.8081             
-20.1471            26.8086             
-20.1468            26.8091             
-20.1465            26.8096             
-20.1462            26.81               
-20.1459            26.8105             
-20.1456            26.811              
-20.1453            26.8115             
-20.145             26.812              
-20.1447            26.8125             
-20.1444            26.813              
-20.1442            26.8135             
-20.1439            26.8139             
-20.1436            26.8144             
-20.1433            26.8149             
-20.143             26.8154             
-20.1427            26.8159             
-20.1424            26.8164             
-20.1421            26.8169             
-20.1418            26.8173             
-20.1415            26.8178             
-20.1412            26.8183             
-20.141             26.8188             
-20.1407            26.8193             
-20.1404            26.8198             
-20.1401            26.8202             
-20.1398            26.8207             
-20.1395            26.8212             
-20.1392            26.8217             
-20.1389            26.8222             
-20.1386            26.8227             
-20.1383            26.8231             
-20.138             26.8236             
-20.1377            26.8241             
-20.1374            26.8246             
-20.1371            26.8251             
-20.1369            26.8256             
-20.1366            26.826              
-20.1363            26.8265             
-20.136             26.827              
-20.1357            26.8275             
-20.1354            26.828              
-20.1351            26.8285             
-20.1348            26.8289             
-20.1345            26.8294             
-20.1342            26.8299             
-20.1339            26.8304             
-20.1336            26.8309             
-20.1333            26.8313             
-20.133             26.8318             
-20.1327            26.8323             
-20.1324            26.8328             
-20.1321            26.8333             
-20.1318            26.8337             
-20.1315            26.8342             
-20.1312            26.8347             
-20.1309            26.8352             
-20.1306            26.8356             
-20.1304            26.8361             
-20.1301            26.8366             
-20.1298            26.8371             
-20.1295            26.8376             
-20.1292            26.838              
-20.1289            26.8385             
-20.1286            26.839              
-20.1283            26.8395             
-20.128             26.8399             
-20.1277            26.8404             
-20.1274            26.8409             
-20.1271            26.8414             
-20.1268            26.8418             
-20.1265            26.8423             
-20.1262            26.8428             
-20.1259            26.8433             
-20.1256            26.8437             
-20.1253            26.8442             
-20.125             26.8447             
-20.1247            26.8452             
-20.1244            26.8456             
-20.1241            26.8461             
-20.1238            26.8466             
-20.1235            26.8471             
-20.1232            26.8475             
-20.1229            26.848              
-20.1226            26.8485             
-20.1223            26.849              
-20.122             26.8494             
-20.1217            26.8499             
-20.1214            26.8504             
-20.1211            26.8509             
-20.1208            26.8513             
-20.1205            26.8518             
-20.1202            26.8523             
-20.1199            26.8527             
-20.1196            26.8532             
-20.1193            26.8537             
-20.119             26.8542             
-20.1187            26.8546             
-20.1184            26.8551             
-20.1181            26.8556             
-20.1178            26.856              
-20.1175            26.8565             
-20.1172            26.857              
-20.1169            26.8574             
-20.1165            26.8579             
-20.1162            26.8584             
-20.1159            26.8589             
-20.1156            26.8593             
-20.1153            26.8598             
-20.115             26.8603             
-20.1147            26.8607             
-20.1144            26.8612             
-20.1141            26.8617             
-20.1138            26.8621             
-20.1135            26.8626             
-20.1132            26.8631             
-20.1129            26.8635             
-20.1126            26.864              
-20.1123            26.8645             
-20.112             26.8649             
-20.1117            26.8654             
-20.1114            26.8659             
-20.1111            26.8663             
-20.1108            26.8668             
-20.1105            26.8673             
-20.1101            26.8677             
-20.1098            26.8682             
-20.1095            26.8687             
-20.1092            26.8691             
-20.1089            26.8696             
-20.1086            26.8701             
-20.1083            26.8705             
-20.108             26.871              
-20.1077            26.8715             
-20.1074            26.8719             
-20.1071            26.8724             
-20.1068            26.8728             
-20.1065            26.8733             
-20.1062            26.8738             
-20.1058            26.8742             
-20.1055            26.8747             
-20.1052            26.8752             
-20.1049            26.8756             
-20.1046            26.8761             
-20.1043            26.8766             
-20.104             26.877              
-20.1037            26.8775             
-20.1034            26.8779             
-20.1031            26.8784             
-20.1028            26.8789             
-20.1025            26.8793             
-20.1021            26.8798             
-20.1018            26.8802             
-20.1015            26.8807             
-20.1012            26.8812             
-20.1009            26.8816             
-20.1006            26.8821             
-20.1003            26.8825             
-20.1               26.883              
-20.0997            26.8835             
-20.0993            26.8839             
-20.099             26.8844             
-20.0987            26.8848             
-20.0984            26.8853             
-20.0981            26.8858             
-20.0978            26.8862             
-20.0975            26.8867             
-20.0972            26.8871             
-20.0969            26.8876             
-20.0965            26.888              
-20.0962            26.8885             
-20.0959            26.889              
-20.0956            26.8894             
-20.0953            26.8899             
-20.095             26.8903             
-20.0947            26.8908             
-20.0944            26.8912             
-20.094             26.8917             
-20.0937            26.8922             
-20.0934            26.8926             
-20.0931            26.8931             
-20.0928            26.8935             
-20.0925            26.894              
-20.0922            26.8944             
-20.0918            26.8949             
-20.0915            26.8953             
-20.0912            26.8958             
-20.0909            26.8963             
-20.0906            26.8967             
-20.0903            26.8972             
-20.09              26.8976             
-20.0896            26.8981             
-20.0893            26.8985             
-20.089             26.899              
-20.0887            26.8994             
-20.0884            26.8999             
-20.0881            26.9003             
-20.0877            26.9008             
-20.0874            26.9012             
-20.0871            26.9017             
-20.0868            26.9021             
-20.0865            26.9026             
-20.0862            26.903              
-20.0858            26.9035             
-20.0855            26.9039             
-20.0852            26.9044             
-20.0849            26.9048             
-20.0846            26.9053             
-20.0843            26.9057             
-20.0839            26.9062             
-20.0836            26.9066             
-20.0833            26.9071             
-20.083             26.9075             
-20.0827            26.908              
-20.0823            26.9084             
-20.082             26.9089             
-20.0817            26.9093             
-20.0814            26.9098             
-20.0811            26.9102             
-20.0808            26.9107             
-20.0804            26.9111             
-20.0801            26.9116             
-20.0798            26.912              
-20.0795            26.9125             
-20.0792            26.9129             
-20.0788            26.9134             
-20.0785            26.9138             
-20.0782            26.9143             
-20.0779            26.9147             
-20.0776            26.9152             
-20.0772            26.9156             
-20.0769            26.9161             
-20.0766            26.9165             
-20.0763            26.9169             
-20.076             26.9174             
-20.0756            26.9178             
-20.0753            26.9183             
-20.075             26.9187             
-20.0747            26.9192             
-20.0743            26.9196             
-20.074             26.9201             
-20.0737            26.9205             
-20.0734            26.9209             
-20.0731            26.9214             
-20.0727            26.9218             
-20.0724            26.9223             
-20.0721            26.9227             
-20.0718            26.9232             
-20.0714            26.9236             
-20.0711            26.9241             
-20.0708            26.9245             
-20.0705            26.9249             
-20.0701            26.9254             
-20.0698            26.9258             
-20.0695            26.9263             
-20.0692            26.9267             
-20.0688            26.9271             
-20.0685            26.9276             
-20.0682            26.928              
-20.0679            26.9285             
-20.0676            26.9289             
-20.0672            26.9294             
-20.0669            26.9298             
-20.0666            26.9302             
-20.0662            26.9307             
-20.0659            26.9311             
-20.0656            26.9316             
-20.0653            26.932              
-20.0649            26.9324             
-20.0646            26.9329             
-20.0643            26.9333             
-20.064             26.9337             
-20.0636            26.9342             
-20.0633            26.9346             
-20.063             26.9351             
-20.0627            26.9355             
-20.0623            26.9359             
-20.062             26.9364             
-20.0617            26.9368             
-20.0614            26.9372             
-20.061             26.9377             
-20.0607            26.9381             
-20.0604            26.9386             
-20.06              26.939              
-20.0597            26.9394             
-20.0594            26.9399             
-20.0591            26.9403             
-20.0587            26.9407             
-20.0584            26.9412             
-20.0581            26.9416             
-20.0577            26.942              
-20.0574            26.9425             
-20.0571            26.9429             
-20.0568            26.9433             
-20.0564            26.9438             
-20.0561            26.9442             
-20.0558            26.9447             
-20.0554            26.9451             
-20.0551            26.9455             
-20.0548            26.946              
-20.0544            26.9464             
-20.0541            26.9468             
-20.0538            26.9473             
-20.0535            26.9477             
-20.0531            26.9481             
-20.0528            26.9486             
-20.0525            26.949              
-20.0521            26.9494             
-20.0518            26.9498             
-20.0515            26.9503             
-20.0511            26.9507             
-20.0508            26.9511             
-20.0505            26.9516             
-20.0501            26.952              
-20.0498            26.9524             
-20.0495            26.9529             
-20.0491            26.9533             
-20.0488            26.9537             
-20.0485            26.9542             
-20.0481            26.9546             
-20.0478            26.955              
-20.0475            26.9554             
-20.0471            26.9559             
-20.0468            26.9563             
-20.0465            26.9567             
-20.0461            26.9572             
-20.0458            26.9576             
-20.0455            26.958              
-20.0451            26.9584             
-20.0448            26.9589             
-20.0445            26.9593             
-20.0441            26.9597             
-20.0438            26.9602             
-20.0435            26.9606             
-20.0431            26.961              
-20.0428            26.9614             
-20.0425            26.9619             
-20.0421            26.9623             
-20.0418            26.9627             
-20.0415            26.9631             
-20.0411            26.9636             
-20.0408            26.964              
-20.0404            26.9644             
-20.0401            26.9648             
-20.0398            26.9653             
-20.0394            26.9657             
-20.0391            26.9661             
-20.0388            26.9665             
-20.0384            26.967              
-20.0381            26.9674             
-20.0378            26.9678             
-20.0374            26.9682             
-20.0371            26.9687             
-20.0367            26.9691             
-20.0364            26.9695             
-20.0361            26.9699             
-20.0357            26.9704             
-20.0354            26.9708             
-20.035             26.9712             
-20.0347            26.9716             
-20.0344            26.972              
-20.034             26.9725             
-20.0337            26.9729             
-20.0334            26.9733             
-20.033             26.9737             
-20.0327            26.9742             
-20.0323            26.9746             
-20.032             26.975              
-20.0317            26.9754             
-20.0313            26.9758             
-20.031             26.9763             
-20.0306            26.9767             
-20.0303            26.9771             
-20.03              26.9775             
-20.0296            26.9779             
-20.0293            26.9784             
-20.0289            26.9788             
-20.0286            26.9792             
-20.0283            26.9796             
-20.0279            26.98               
-20.0276            26.9805             
-20.0272            26.9809             
-20.0269            26.9813             
-20.0265            26.9817             
-20.0262            26.9821             
-20.0259            26.9825             
-20.0255            26.983              
-20.0252            26.9834             
-20.0248            26.9838             
-20.0245            26.9842             
-20.0242            26.9846             
-20.0238            26.985              
-20.0235            26.9855             
-20.0231            26.9859             
-20.0228            26.9863             
-20.0224            26.9867             
-20.0221            26.9871             
-20.0217            26.9875             
-20.0214            26.988              
-20.0211            26.9884             
-20.0207            26.9888             
-20.0204            26.9892             
-20.02              26.9896             
-20.0197            26.99               
-20.0193            26.9904             
-20.019             26.9909             
-20.0186            26.9913             
-20.0183            26.9917             
-20.018             26.9921             
-20.0176            26.9925             
-20.0173            26.9929             
-20.0169            26.9933             
-20.0166            26.9937             
-20.0162            26.9942             
-20.0159            26.9946             
-20.0155            26.995              
-20.0152            26.9954             
-20.0148            26.9958             
-20.0145            26.9962             
-20.0142            26.9966             
-20.0138            26.997              
-20.0135            26.9974             
-20.0131            26.9979             
-20.0128            26.9983             
-20.0124            26.9987             
-20.0121            26.9991             
-20.0117            26.9995             
-20.0114            26.9999             
-20.011             27.0003             
-20.0107            27.0007             
-20.0103            27.0011             
-20.01              27.0015             
-20.0096            27.002              
-20.0093            27.0024             
-20.0089            27.0028             
-20.0086            27.0032             
-20.0082            27.0036             
-20.0079            27.004              
-20.0075            27.0044             
-20.0072            27.0048             
-20.0068            27.0052             
-20.0065            27.0056             
-20.0061            27.006              
