# fichier finlay.txt
############################################################################################
# Positions prévues de la comète Finlay par rapport au Soleil.
# Les données sont prises tous les jours.
# La première ligne correspond au 15/ 4/2021, la deuxième au 16/ 4/2021, etc.
# Les distances sont exprimées en unité astronomique (au) : 1 au = 1.496e+11 m
############################################################################################
X (au)              Y (au)              Z (au)              
0.3525              -1.3911             -0.1712             
0.3651              -1.3783             -0.1701             
0.3778              -1.3653             -0.1689             
0.3903              -1.3522             -0.1678             
0.4029              -1.339              -0.1666             
0.4154              -1.3256             -0.1654             
0.4278              -1.312              -0.1642             
0.4402              -1.2984             -0.163              
0.4525              -1.2845             -0.1617             
0.4648              -1.2706             -0.1604             
0.4771              -1.2564             -0.1592             
0.4893              -1.2422             -0.1578             
0.5014              -1.2277             -0.1565             
0.5134              -1.2132             -0.1552             
0.5254              -1.1984             -0.1538             
0.5374              -1.1835             -0.1524             
0.5492              -1.1685             -0.151              
0.561               -1.1533             -0.1496             
0.5727              -1.1379             -0.1481             
0.5844              -1.1224             -0.1467             
0.5959              -1.1067             -0.1452             
0.6074              -1.0909             -0.1437             
0.6187              -1.0749             -0.1422             
0.63                -1.0587             -0.1406             
0.6412              -1.0424             -0.139              
0.6522              -1.0259             -0.1374             
0.6632              -1.0092             -0.1358             
0.6741              -0.9924             -0.1342             
0.6848              -0.9754             -0.1325             
0.6954              -0.9583             -0.1308             
0.7059              -0.9409             -0.1291             
0.7163              -0.9234             -0.1274             
0.7266              -0.9058             -0.1256             
0.7367              -0.8879             -0.1238             
0.7466              -0.8699             -0.122              
0.7565              -0.8518             -0.1202             
0.7662              -0.8334             -0.1184             
0.7757              -0.8149             -0.1165             
0.7851              -0.7962             -0.1146             
0.7943              -0.7774             -0.1127             
0.8033              -0.7584             -0.1107             
0.8122              -0.7392             -0.1088             
0.8208              -0.7199             -0.1068             
0.8293              -0.7004             -0.1048             
0.8377              -0.6808             -0.1027             
0.8458              -0.661              -0.1007             
0.8537              -0.641              -0.0986             
0.8614              -0.6209             -0.0965             
0.8689              -0.6006             -0.0943             
0.8762              -0.5802             -0.0922             
0.8832              -0.5596             -0.09               
0.8901              -0.5389             -0.0878             
0.8967              -0.5181             -0.0855             
0.9031              -0.4971             -0.0833             
0.9092              -0.476              -0.081              
0.9151              -0.4547             -0.0787             
0.9207              -0.4333             -0.0764             
0.9261              -0.4118             -0.0741             
0.9312              -0.3902             -0.0717             
0.936               -0.3685             -0.0693             
0.9406              -0.3467             -0.0669             
0.9449              -0.3248             -0.0645             
0.9489              -0.3027             -0.0621             
0.9527              -0.2806             -0.0596             
0.9561              -0.2584             -0.0572             
0.9593              -0.2361             -0.0547             
0.9622              -0.2138             -0.0522             
0.9648              -0.1914             -0.0496             
0.967               -0.1689             -0.0471             
0.969               -0.1464             -0.0445             
0.9707              -0.1238             -0.042              
0.9721              -0.1012             -0.0394             
0.9731              -0.0786             -0.0368             
0.9739              -0.0559             -0.0342             
0.9743              -0.0332             -0.0316             
0.9744              -0.0105             -0.0289             
0.9743              0.0122              -0.0263             
0.9738              0.0349              -0.0237             
0.973               0.0576              -0.021              
0.9718              0.0802              -0.0184             
0.9704              0.1029              -0.0157             
0.9687              0.1255              -0.013              
0.9666              0.1481              -0.0104             
0.9643              0.1706              -0.0077             
0.9617              0.193               -0.005              
0.9587              0.2155              -0.0023             
0.9555              0.2378              0.0004              
0.9519              0.2601              0.003               
0.9481              0.2822              0.0057              
0.9439              0.3043              0.0084              
0.9395              0.3264              0.0111              
0.9348              0.3483              0.0137              
0.9298              0.3701              0.0164              
0.9246              0.3918              0.0191              
0.9191              0.4133              0.0217              
0.9133              0.4348              0.0244              
0.9072              0.4561              0.027               
0.9009              0.4774              0.0297              
0.8944              0.4984              0.0323              
0.8876              0.5194              0.0349              
0.8805              0.5402              0.0375              
0.8733              0.5608              0.0401              
0.8658              0.5813              0.0427              
0.858               0.6017              0.0453              
0.8501              0.6219              0.0479              
0.8419              0.6419              0.0504              
0.8335              0.6618              0.053               
0.8249              0.6815              0.0555              
0.8162              0.7011              0.058               
0.8072              0.7205              0.0605              
0.798               0.7397              0.063               
0.7887              0.7588              0.0655              
0.7792              0.7777              0.0679              
0.7695              0.7964              0.0704              
0.7596              0.8149              0.0728              
0.7496              0.8333              0.0752              
0.7394              0.8515              0.0776              
0.7291              0.8695              0.08                
0.7186              0.8873              0.0824              
0.708               0.905               0.0847              
0.6972              0.9225              0.087               
0.6864              0.9398              0.0894              
0.6753              0.957               0.0917              
0.6642              0.9739              0.0939              
0.6529              0.9907              0.0962              
0.6416              1.0073              0.0985              
0.6301              1.0238              0.1007              
0.6185              1.0401              0.1029              
0.6068              1.0562              0.1051              
0.595               1.0721              0.1073              
0.5831              1.0879              0.1094              
0.5712              1.1035              0.1116              
0.5591              1.1189              0.1137              
0.547               1.1342              0.1158              
0.5347              1.1492              0.1179              
0.5224              1.1642              0.12                
0.5101              1.1789              0.1221              
0.4976              1.1935              0.1241              
0.4851              1.208               0.1262              
0.4725              1.2223              0.1282              
0.4599              1.2364              0.1302              
0.4472              1.2503              0.1321              
0.4345              1.2642              0.1341              
0.4217              1.2778              0.1361              
0.4088              1.2913              0.138               
0.3959              1.3047              0.1399              
0.383               1.3179              0.1418              
0.37                1.3309              0.1437              
0.3569              1.3438              0.1455              
0.3439              1.3566              0.1474              
0.3308              1.3692              0.1492              
0.3176              1.3817              0.151               
0.3044              1.394               0.1529              
0.2912              1.4062              0.1546              
0.278               1.4183              0.1564              
0.2648              1.4302              0.1582              
0.2515              1.442               0.1599              
0.2382              1.4536              0.1616              
0.2248              1.4651              0.1634              
0.2115              1.4765              0.1651              
0.1981              1.4878              0.1667              
0.1847              1.4989              0.1684              
0.1713              1.5099              0.1701              
0.1579              1.5208              0.1717              
0.1445              1.5315              0.1733              
0.1311              1.5422              0.175               
0.1176              1.5527              0.1766              
0.1041              1.5631              0.1781              
0.0907              1.5733              0.1797              
0.0772              1.5835              0.1813              
0.0637              1.5935              0.1828              
0.0502              1.6035              0.1844              
0.0368              1.6133              0.1859              
0.0233              1.623               0.1874              
0.0098              1.6326              0.1889              
-0.0037             1.6421              0.1904              
-0.0172             1.6515              0.1918              
-0.0307             1.6607              0.1933              
-0.0442             1.6699              0.1947              
-0.0577             1.679               0.1962              
-0.0712             1.6879              0.1976              
-0.0846             1.6968              0.199               
-0.0981             1.7055              0.2004              
-0.1116             1.7142              0.2018              
-0.125              1.7227              0.2032              
-0.1385             1.7312              0.2045              
-0.1519             1.7396              0.2059              
-0.1654             1.7479              0.2072              
-0.1788             1.756               0.2085              
-0.1922             1.7641              0.2099              
-0.2056             1.7721              0.2112              
-0.219              1.78                0.2125              
-0.2324             1.7878              0.2138              
-0.2458             1.7956              0.215               
-0.2591             1.8032              0.2163              
-0.2725             1.8108              0.2176              
-0.2858             1.8182              0.2188              
-0.2992             1.8256              0.22                
-0.3125             1.8329              0.2213              
-0.3258             1.8401              0.2225              
-0.3391             1.8473              0.2237              
-0.3523             1.8543              0.2249              
-0.3656             1.8613              0.2261              
-0.3788             1.8682              0.2272              
-0.392              1.875               0.2284              
-0.4052             1.8817              0.2296              
-0.4184             1.8884              0.2307              
-0.4316             1.895               0.2318              
-0.4448             1.9015              0.233               
-0.4579             1.908               0.2341              
-0.471              1.9143              0.2352              
-0.4841             1.9206              0.2363              
-0.4972             1.9268              0.2374              
-0.5103             1.933               0.2385              
-0.5233             1.9391              0.2396              
-0.5364             1.9451              0.2406              
-0.5494             1.951               0.2417              
-0.5624             1.9569              0.2427              
-0.5753             1.9627              0.2438              
-0.5883             1.9685              0.2448              
-0.6012             1.9741              0.2458              
-0.6141             1.9797              0.2469              
-0.627              1.9853              0.2479              
-0.6399             1.9908              0.2489              
-0.6527             1.9962              0.2499              
-0.6656             2.0015              0.2508              
-0.6784             2.0068              0.2518              
-0.6912             2.0121              0.2528              
-0.704              2.0173              0.2538              
-0.7167             2.0224              0.2547              
-0.7294             2.0274              0.2557              
-0.7421             2.0324              0.2566              
-0.7548             2.0374              0.2575              
-0.7675             2.0422              0.2585              
-0.7801             2.0471              0.2594              
-0.7928             2.0518              0.2603              
-0.8054             2.0565              0.2612              
-0.8179             2.0612              0.2621              
-0.8305             2.0658              0.263               
-0.843              2.0703              0.2639              
-0.8555             2.0748              0.2647              
-0.868              2.0793              0.2656              
-0.8805             2.0837              0.2665              
-0.8929             2.088               0.2673              
-0.9054             2.0923              0.2682              
-0.9178             2.0965              0.269               
-0.9302             2.1007              0.2699              
-0.9425             2.1048              0.2707              
-0.9548             2.1089              0.2715              
-0.9672             2.1129              0.2723              
-0.9795             2.1169              0.2731              
-0.9917             2.1209              0.274               
-1.004              2.1247              0.2748              
-1.0162             2.1286              0.2755              
-1.0284             2.1324              0.2763              
-1.0406             2.1361              0.2771              
-1.0527             2.1398              0.2779              
-1.0649             2.1435              0.2787              
-1.077              2.1471              0.2794              
-1.0891             2.1507              0.2802              
-1.1011             2.1542              0.2809              
-1.1132             2.1576              0.2817              
-1.1252             2.1611              0.2824              
-1.1372             2.1645              0.2831              
-1.1492             2.1678              0.2839              
-1.1611             2.1711              0.2846              
-1.1731             2.1744              0.2853              
-1.185              2.1776              0.286               
-1.1969             2.1808              0.2867              
-1.2087             2.1839              0.2874              
-1.2206             2.187               0.2881              
-1.2324             2.1901              0.2888              
-1.2442             2.1931              0.2895              
-1.2559             2.196               0.2902              
-1.2677             2.199               0.2909              
-1.2794             2.2019              0.2915              
-1.2911             2.2047              0.2922              
-1.3028             2.2076              0.2929              
-1.3145             2.2103              0.2935              
-1.3261             2.2131              0.2942              
-1.3377             2.2158              0.2948              
-1.3493             2.2185              0.2954              
-1.3609             2.2211              0.2961              
-1.3724             2.2237              0.2967              
-1.384              2.2262              0.2973              
-1.3955             2.2288              0.2979              
-1.407              2.2313              0.2986              
-1.4184             2.2337              0.2992              
-1.4299             2.2361              0.2998              
-1.4413             2.2385              0.3004              
-1.4527             2.2409              0.301               
-1.464              2.2432              0.3016              
-1.4754             2.2455              0.3022              
-1.4867             2.2477              0.3027              
-1.498              2.2499              0.3033              
-1.5093             2.2521              0.3039              
-1.5206             2.2543              0.3045              
-1.5318             2.2564              0.305               
-1.543              2.2585              0.3056              
-1.5542             2.2605              0.3061              
-1.5654             2.2625              0.3067              
-1.5765             2.2645              0.3072              
-1.5877             2.2665              0.3078              
-1.5988             2.2684              0.3083              
-1.6099             2.2703              0.3089              
-1.6209             2.2722              0.3094              
-1.632              2.274               0.3099              
-1.643              2.2758              0.3104              
-1.654              2.2776              0.311               
-1.665              2.2793              0.3115              
-1.6759             2.281               0.312               
-1.6869             2.2827              0.3125              
-1.6978             2.2844              0.313               
-1.7087             2.286               0.3135              
-1.7195             2.2876              0.314               
-1.7304             2.2892              0.3145              
-1.7412             2.2907              0.315               
-1.752              2.2922              0.3154              
-1.7628             2.2937              0.3159              
